time (s)	det(V)
407150.373003	-0.453790	
407150.375007	-0.445527	
407150.377005	-0.441742	
407150.379008	-0.433279	
407150.381006	-0.425800	
407150.383007	-0.418347	
407150.387006	-0.407501	
407150.389007	-0.391171	
407150.391007	-0.378564	
407150.393006	-0.369502	
407150.395007	-0.360263	
407150.397006	-0.349918	
407150.399006	-0.340693	
407150.401007	-0.333329	
407150.403006	-0.322008	
407150.407008	-0.314625	
407150.409009	-0.297038	
407150.411009	-0.291425	
407150.413010	-0.279048	
407150.415008	-0.270948	
407150.417008	-0.263360	
407150.419008	-0.249223	
407150.421009	-0.245120	
407150.423009	-0.239148	
407150.425016	-0.228251	
407150.429012	-0.222021	
407150.431013	-0.199099	
407150.433012	-0.189594	
407150.435013	-0.176877	
407150.437012	-0.166344	
407150.439013	-0.155444	
407150.441013	-0.145147	
407150.445010	-0.139464	
407150.449011	-0.115654	
407150.451013	-0.091469	
407150.453013	-0.077556	
407150.455016	-0.071005	
407150.457012	-0.061772	
407150.459013	-0.049941	
407150.461013	-0.042068	
407150.463013	-0.032305	
407150.467016	-0.023618	
407150.471016	0.001340	
407150.473016	0.022972	
407150.475019	0.033524	
407150.477017	0.038220	
407150.479017	0.050432	
407150.483014	0.061407	
407150.485017	0.083431	
407150.487016	0.095442	
407150.491017	0.103512	
407150.493016	0.127139	
407150.495018	0.137193	
407150.497018	0.149523	
407150.499017	0.158254	
407150.501017	0.167004	
407150.505016	0.178754	
407150.509016	0.195517	
407150.511017	0.211074	
407150.513018	0.221649	
407150.515016	0.229444	
407150.517016	0.237576	
407150.521015	0.248674	
407150.523016	0.254218	
407150.525019	0.261560	
407150.529017	0.267287	
407150.531018	0.283596	
407150.533018	0.288226	
407150.535018	0.296818	
407150.537017	0.303204	
407150.539017	0.308908	
407150.543018	0.312554	
407150.547019	0.322039	
407150.549020	0.341815	
407150.551020	0.349277	
407150.553020	0.359009	
407150.555020	0.365308	
407150.559018	0.371581	
407150.561019	0.380048	
407150.563020	0.389552	
407150.567023	0.394975	
407150.569023	0.413222	
407150.571025	0.418146	
407150.573024	0.424865	
407150.575022	0.433930	
407150.577024	0.434811	
407150.579025	0.441695	
407150.583024	0.448222	
407150.585024	0.466426	
407150.587024	0.474034	
407150.589024	0.478822	
407150.591024	0.485829	
407150.593024	0.493374	
407150.595023	0.499877	
407150.597024	0.506334	
407150.599023	0.510234	
407150.603023	0.515843	
407150.605024	0.531960	
407150.607024	0.541978	
407150.609024	0.547942	
407150.611024	0.546834	
407150.613024	0.554792	
407150.615024	0.561864	
407150.617023	0.564000	
407150.619024	0.570478	
407150.623027	0.570617	
407150.625028	0.575015	
407150.627028	0.576078	
407150.629028	0.580042	
407150.631028	0.580183	
407150.633028	0.578933	
407150.635028	0.581853	
407150.639026	0.580391	
407150.641028	0.572926	
407150.643028	0.570202	
407150.645028	0.565141	
407150.647031	0.565840	
407150.649028	0.565125	
407150.651027	0.560816	
407150.653028	0.561911	
407150.655027	0.555519	
407150.659026	0.550132	
407150.663026	0.538613	
407150.665028	0.534767	
407150.667028	0.531689	
407150.669028	0.531995	
407150.671028	0.527237	
407150.673027	0.523646	
407150.675028	0.520884	
407150.677027	0.511017	
407150.681038	0.508220	
407150.685037	0.503589	
407150.687038	0.501736	
407150.689038	0.496759	
407150.691037	0.493017	
407150.693038	0.490687	
407150.697037	0.487917	
407150.699038	0.481939	
407150.701039	0.478447	
407150.705037	0.480935	
407150.707038	0.479406	
407150.709038	0.477711	
407150.711038	0.471786	
407150.713039	0.474548	
407150.715037	0.473782	
407150.719038	0.469694	
407150.723039	0.470013	
407150.725038	0.471041	
407150.727040	0.467754	
407150.729040	0.466741	
407150.731040	0.466581	
407150.735042	0.464458	
407150.737044	0.461016	
407150.739043	0.457432	
407150.743043	0.454722	
407150.745044	0.448698	
407150.747044	0.446459	
407150.749044	0.443213	
407150.751044	0.439355	
407150.753044	0.436375	
407150.757044	0.426611	
407150.761043	0.418097	
407150.763044	0.408682	
407150.765043	0.402675	
407150.767044	0.396626	
407150.769044	0.395350	
407150.773042	0.389439	
407150.775043	0.374761	
407150.777043	0.364724	
407150.781044	0.360032	
407150.783044	0.350504	
407150.785047	0.344389	
407150.787045	0.337202	
407150.789046	0.329220	
407150.791046	0.322130	
407150.795044	0.310748	
407150.799045	0.296931	
407150.801046	0.287078	
407150.803046	0.283461	
407150.805047	0.274267	
407150.807045	0.268831	
407150.811044	0.263713	
407150.813045	0.248431	
407150.815046	0.243283	
407150.819046	0.237241	
407150.821048	0.233996	
407150.836989	0.216800	
407150.838990	0.221385	
407150.842989	0.216246	
407150.844992	0.217011	
407150.846991	0.217451	
407150.848991	0.210390	
407150.850991	0.209417	
407150.852991	0.206564	
407150.856991	0.199970	
407150.860990	0.195217	
407150.862992	0.194309	
407150.864991	0.190773	
407150.866991	0.187924	
407150.868990	0.189370	
407150.872989	0.184040	
407150.874991	0.173883	
407150.876992	0.168992	
407150.880990	0.167316	
407150.882992	0.163256	
407150.884990	0.163623	
407150.886991	0.160335	
407150.888991	0.155268	
407150.890991	0.151611	
407150.894989	0.143840	
407150.898989	0.136362	
407150.900991	0.132490	
407150.902995	0.131257	
407150.904999	0.123584	
407150.907000	0.119691	
407150.910997	0.116644	
407150.912998	0.104871	
407150.914998	0.101459	
407150.918998	0.095317	
407150.920999	0.091022	
407150.922999	0.088409	
407150.925002	0.081054	
407150.926999	0.078385	
407150.929000	0.072413	
407150.930998	0.066636	
407150.934999	0.063018	
407150.937001	0.057612	
407150.939001	0.056832	
407150.941001	0.051707	
407150.943001	0.046944	
407150.945001	0.041964	
407150.947001	0.038189	
407150.949000	0.036104	
407150.951001	0.030524	
407150.954999	0.030104	
407150.957000	0.020742	
407150.959001	0.022544	
407150.961001	0.017223	
407150.963000	0.015709	
407150.965001	0.015386	
407150.967000	0.011205	
407150.970999	0.011198	
407150.974999	0.002554	
407150.977001	-0.003426	
407150.979002	-0.002541	
407150.981000	-0.001643	
407150.983000	-0.006580	
407150.985005	-0.006181	
407150.987004	-0.005357	
407150.991006	-0.011598	
407150.995006	-0.018911	
407150.997008	-0.018534	
407150.999009	-0.018000	
407151.001009	-0.022823	
407151.003008	-0.020780	
407151.005008	-0.024503	
407151.007007	-0.027446	
407151.009009	-0.031117	
407151.013017	-0.035889	
407151.017018	-0.039547	
407151.019019	-0.039551	
407151.023017	-0.044743	
407151.025019	-0.049211	
407151.029017	-0.053879	
407151.031019	-0.061064	
407151.033018	-0.064364	
407151.037020	-0.065375	
407151.039020	-0.071254	
407151.041019	-0.074203	
407151.043018	-0.080137	
407151.045019	-0.084700	
407151.049016	-0.087397	
407151.053017	-0.096809	
407151.055019	-0.101613	
407151.057018	-0.106638	
407151.059019	-0.110622	
407151.061019	-0.117849	
407151.063018	-0.119925	
407151.065018	-0.124170	
407151.067019	-0.130049	
407151.071028	-0.130217	
407151.075032	-0.140062	
407151.077035	-0.147038	
407151.079036	-0.151375	
407151.081034	-0.154782	
407151.083035	-0.158231	
407151.087031	-0.159537	
407151.089034	-0.169652	
407151.091033	-0.173235	
407151.095033	-0.178903	
407151.097035	-0.181771	
407151.099034	-0.184430	
407151.101033	-0.188231	
407151.103035	-0.185506	
407151.105034	-0.192757	
407151.107033	-0.199055	
407151.111032	-0.200243	
407151.113034	-0.204773	
407151.115034	-0.208564	
407151.117034	-0.209680	
407151.119034	-0.208039	
407151.121034	-0.213538	
407151.123034	-0.215446	
407151.127031	-0.219593	
407151.129035	-0.228380	
407151.131034	-0.230501	
407151.133033	-0.233904	
407151.137035	-0.235233	
407151.139033	-0.239447	
407151.141034	-0.243577	
407151.143034	-0.245329	
407151.147031	-0.252691	
407151.149034	-0.259179	
407151.151033	-0.263379	
407151.155033	-0.263323	
407151.157034	-0.271314	
407151.159033	-0.275472	
407151.161034	-0.283676	
407151.163034	-0.283639	
407151.165034	-0.290223	
407151.167035	-0.296228	
407151.169033	-0.296610	
407151.173033	-0.304802	
407151.175034	-0.310313	
407151.177036	-0.317930	
407151.179036	-0.322285	
407151.181035	-0.325947	
407151.183037	-0.330205	
407151.185036	-0.332408	
407151.187035	-0.341692	
407151.191035	-0.348993	
407151.193036	-0.357570	
407151.195035	-0.363645	
407151.197036	-0.366500	
407151.199035	-0.370765	
407151.201036	-0.376158	
407151.203036	-0.377939	
407151.205036	-0.385029	
407151.207035	-0.391051	
407151.209037	-0.396555	
407151.213035	-0.404035	
407151.215036	-0.408366	
407151.217036	-0.412856	
407151.219036	-0.413155	
407151.221036	-0.419060	
407151.223035	-0.421117	
407151.225035	-0.424017	
407151.227035	-0.429711	
407151.229036	-0.433678	
407151.233039	-0.435245	
407151.235040	-0.437577	
407151.237040	-0.437550	
407151.239040	-0.439660	
407151.241041	-0.442288	
407151.243039	-0.445894	
407151.245039	-0.448646	
407151.247039	-0.450932	
407151.249040	-0.456087	
407151.253039	-0.458084	
407151.255040	-0.459982	
407151.257040	-0.460989	
407151.259040	-0.460867	
407151.261039	-0.468329	
407151.263039	-0.467877	
407151.265041	-0.470960	
407151.269038	-0.474332	
407151.271039	-0.479215	
407151.273045	-0.481024	
407151.275042	-0.481327	
407151.277043	-0.485207	
407151.279042	-0.484759	
407151.281042	-0.485086	
407151.283042	-0.487141	
407151.285042	-0.486696	
407151.287041	-0.489429	
407151.291050	-0.494568	
407151.295049	-0.497384	
407151.297049	-0.496803	
407151.299049	-0.498438	
407151.301049	-0.500339	
407151.303051	-0.496656	
407151.307048	-0.500063	
407151.309051	-0.505833	
407151.311050	-0.511489	
407151.315049	-0.509296	
407151.317050	-0.507028	
407151.319049	-0.504525	
407151.321050	-0.507089	
407151.323049	-0.507581	
407151.325049	-0.506819	
407151.329051	-0.512825	
407151.333051	-0.510249	
407151.335053	-0.501768	
407151.337052	-0.500292	
407151.339052	-0.498729	
407151.341052	-0.495154	
407151.345050	-0.493544	
407151.347052	-0.489840	
407151.349052	-0.485342	
407151.353051	-0.482291	
407151.355051	-0.471338	
407151.357051	-0.468035	
407151.359052	-0.463377	
407151.361051	-0.462967	
407151.363051	-0.455995	
407151.367051	-0.456527	
407151.371052	-0.446693	
407151.373053	-0.437334	
407151.375057	-0.433868	
407151.377055	-0.433573	
407151.379056	-0.428615	
407151.383053	-0.424863	
407151.385055	-0.414972	
407151.387055	-0.408152	
407151.391056	-0.406366	
407151.393057	-0.392937	
407151.395057	-0.389868	
407151.397056	-0.382640	
407151.399055	-0.375232	
407151.401056	-0.371532	
407151.405055	-0.362414	
407151.409055	-0.351963	
407151.411056	-0.340109	
407151.413055	-0.331398	
407151.415055	-0.324552	
407151.417055	-0.318330	
407151.421053	-0.308656	
407151.423055	-0.302159	
407151.425055	-0.293910	
407151.429055	-0.290361	
407151.431056	-0.272272	
407151.433056	-0.267746	
407151.435055	-0.258322	
407151.437056	-0.250384	
407151.439056	-0.244248	
407151.441056	-0.239495	
407151.445056	-0.233082	
407151.447056	-0.214308	
407151.449055	-0.203151	
407151.451055	-0.194321	
407151.453055	-0.181390	
407151.455055	-0.174393	
407151.457056	-0.163864	
407151.459057	-0.154902	
407151.461055	-0.149981	
407151.465057	-0.138498	
407151.467059	-0.118803	
407151.469058	-0.101580	
407151.471060	-0.092484	
407151.473065	-0.083254	
407151.475064	-0.072148	
407151.477064	-0.065857	
407151.481061	-0.056440	
407151.483063	-0.039284	
407151.485063	-0.027983	
407151.487064	-0.018309	
407151.489064	-0.007804	
407151.491064	0.003473	
407151.493063	0.011026	
407151.495064	0.017143	
407151.497062	0.027904	
407151.501063	0.036049	
407151.505061	0.056116	
407151.507064	0.071837	
407151.509064	0.082837	
407151.511064	0.086998	
407151.513063	0.097778	
407151.515065	0.107651	
407151.517063	0.114694	
407151.519064	0.125452	
407151.523063	0.130870	
407151.525063	0.144358	
407151.527064	0.148586	
407151.529063	0.157481	
407151.531064	0.165757	
407151.533065	0.171498	
407151.535064	0.180056	
407151.537063	0.187474	
407151.539064	0.190867	
407151.543067	0.195151	
407151.547068	0.202513	
407151.549067	0.220403	
407151.551068	0.225736	
407151.553067	0.235308	
407151.555067	0.241019	
407151.559066	0.247714	
407151.561067	0.258124	
407151.563073	0.268382	
407151.567073	0.276302	
407151.569073	0.298761	
407151.571077	0.305806	
407151.573076	0.312529	
407151.575077	0.322417	
407151.577076	0.325696	
407151.579079	0.334218	
407151.583076	0.344766	
407151.585077	0.361336	
407151.587077	0.371704	
407151.589076	0.378136	
407151.591077	0.384311	
407151.593077	0.389499	
407151.595078	0.393694	
407151.597077	0.398921	
407151.599081	0.404103	
407151.603082	0.410296	
407151.605082	0.424634	
407151.607083	0.432925	
407151.609082	0.440601	
407151.611082	0.441158	
407151.613083	0.450112	
407151.615081	0.456925	
407151.617082	0.458967	
407151.619084	0.466609	
407151.623083	0.468708	
407151.625084	0.478114	
407151.627085	0.482019	
407151.629086	0.485909	
407151.631085	0.490089	
407151.633085	0.489838	
407151.635085	0.494912	
407151.639083	0.496267	
407151.641085	0.493757	
407151.643084	0.493319	
407151.645086	0.490659	
407151.647084	0.494469	
407151.649085	0.495443	
407151.651084	0.491463	
407151.653085	0.493801	
407151.655085	0.489435	
407151.659085	0.486546	
407151.663085	0.477969	
407151.665087	0.476817	
407151.667088	0.474832	
407151.669087	0.477017	
407151.671087	0.474185	
407151.673087	0.472251	
407151.675087	0.470078	
407151.679086	0.461810	
407151.681087	0.462383	
407151.685085	0.458930	
407151.687088	0.462016	
407151.689087	0.459233	
407151.691086	0.457444	
407151.693086	0.456298	
407151.697084	0.453637	
407151.699086	0.450084	
407151.701086	0.448289	
407151.705087	0.452663	
407151.707087	0.450609	
407151.709086	0.450987	
407151.711087	0.444938	
407151.713087	0.447811	
407151.717085	0.446755	
407151.719086	0.444690	
407151.723087	0.442944	
407151.725086	0.443514	
407151.727086	0.440969	
407151.729087	0.439098	
407151.731086	0.441088	
407151.735086	0.437973	
407151.737087	0.434764	
407151.739086	0.432294	
407151.743086	0.430010	
407151.745089	0.426165	
407151.747086	0.423739	
407151.749088	0.421720	
407151.751089	0.418423	
407151.753088	0.418835	
407151.757087	0.410803	
407151.761088	0.405257	
407151.763089	0.397054	
407151.765092	0.392683	
407151.767088	0.387351	
407151.769089	0.387447	
407151.773087	0.382112	
407151.775088	0.368244	
407151.777089	0.359656	
407151.781089	0.355157	
407151.783089	0.347955	
407151.785091	0.344020	
407151.787088	0.338329	
407151.789087	0.332574	
407151.791090	0.326492	
407151.793087	0.317797	
407151.797098	0.310622	
407151.799099	0.301909	
407151.801099	0.298133	
407151.803098	0.297982	
407151.805099	0.290407	
407151.807099	0.284759	
407151.809099	0.280867	
407151.811099	0.270781	
407151.813101	0.266542	
407151.817100	0.262324	
407151.819101	0.257895	
407151.821101	0.253402	
407151.823102	0.249480	
407151.825101	0.246873	
407151.827100	0.240338	
407151.829103	0.238187	
407151.833103	0.233956	
407151.835103	0.228510	
407151.837103	0.226107	
407151.853005	0.225146	
407151.855007	0.221600	
407151.857007	0.219781	
407151.859006	0.221581	
407151.861006	0.214356	
407151.863006	0.213637	
407151.865007	0.207834	
407151.869018	0.203703	
407151.871020	0.195911	
407151.873020	0.195707	
407151.875020	0.190985	
407151.877021	0.185147	
407151.879021	0.182183	
407151.881021	0.179807	
407151.883020	0.175742	
407151.885021	0.171039	
407151.889018	0.167001	
407151.891021	0.159055	
407151.893021	0.156025	
407151.895020	0.149443	
407151.897020	0.147210	
407151.899019	0.141306	
407151.901022	0.138810	
407151.905020	0.137421	
407151.907021	0.123528	
407151.909023	0.121772	
407151.911021	0.112977	
407151.913023	0.113488	
407151.915022	0.111300	
407151.917023	0.105194	
407151.919022	0.103280	
407151.921022	0.099265	
407151.925020	0.094430	
407151.929020	0.085893	
407151.931023	0.083309	
407151.933023	0.079778	
407151.935021	0.078821	
407151.937023	0.077259	
407151.939022	0.072327	
407151.941023	0.070613	
407151.943022	0.062220	
407151.947022	0.058068	
407151.949022	0.056895	
407151.951022	0.052918	
407151.953024	0.056916	
407151.955022	0.052399	
407151.957023	0.051343	
407151.959022	0.050642	
407151.961023	0.045041	
407151.963022	0.043384	
407151.967024	0.041623	
407151.971023	0.038351	
407151.973024	0.037157	
407151.977023	0.032495	
407151.979023	0.034676	
407151.983023	0.029312	
407151.985025	0.025531	
407151.987024	0.024748	
407151.991028	0.021554	
407151.993024	0.020441	
407151.995025	0.016565	
407151.997023	0.013158	
407151.999024	0.013016	
407152.003022	0.007882	
407152.007022	0.004460	
407152.009024	0.001420	
407152.011023	-0.004683	
407152.013024	-0.005635	
407152.015023	-0.007600	
407152.017025	-0.011252	
407152.019025	-0.012902	
407152.021024	-0.017795	
407152.025030	-0.021371	
407152.029029	-0.032311	
407152.031033	-0.033565	
407152.033030	-0.036871	
407152.035029	-0.039490	
407152.037030	-0.042688	
407152.041028	-0.046641	
407152.043031	-0.057130	
407152.045030	-0.063111	
407152.049030	-0.065608	
407152.051030	-0.067813	
407152.053030	-0.067913	
407152.055030	-0.075713	
407152.057031	-0.076389	
407152.059029	-0.080183	
407152.063037	-0.089818	
407152.067037	-0.093063	
407152.069039	-0.092651	
407152.071038	-0.097342	
407152.073039	-0.102036	
407152.075039	-0.103678	
407152.079036	-0.108962	
407152.081037	-0.116663	
407152.083039	-0.117877	
407152.087037	-0.119106	
407152.089039	-0.121288	
407152.091037	-0.124465	
407152.093039	-0.126141	
407152.095037	-0.132444	
407152.097037	-0.131624	
407152.101039	-0.137076	
407152.105038	-0.137648	
407152.107040	-0.140662	
407152.109042	-0.141779	
407152.111039	-0.149018	
407152.113039	-0.148781	
407152.117038	-0.149492	
407152.119038	-0.155263	
407152.121039	-0.159156	
407152.125039	-0.164113	
407152.127040	-0.166857	
407152.129040	-0.168494	
407152.131040	-0.170084	
407152.133040	-0.174391	
407152.135038	-0.177870	
407152.137042	-0.182468	
407152.141042	-0.187796	
407152.143044	-0.193889	
407152.145044	-0.198056	
407152.147044	-0.200576	
407152.149044	-0.206015	
407152.151043	-0.210531	
407152.153043	-0.210211	
407152.157042	-0.216794	
407152.159044	-0.228066	
407152.161044	-0.236385	
407152.163043	-0.239812	
407152.165046	-0.243944	
407152.167053	-0.247010	
407152.169051	-0.247928	
407152.171052	-0.255813	
407152.173052	-0.261694	
407152.177050	-0.266130	
407152.181050	-0.279502	
407152.183052	-0.288119	
407152.185052	-0.290465	
407152.187053	-0.295148	
407152.189051	-0.302349	
407152.191052	-0.306096	
407152.193051	-0.310817	
407152.195052	-0.323066	
407152.199051	-0.326005	
407152.203051	-0.335682	
407152.205051	-0.339666	
407152.207050	-0.343460	
407152.209052	-0.347798	
407152.211051	-0.355665	
407152.215049	-0.357705	
407152.217052	-0.369231	
407152.219052	-0.368714	
407152.223052	-0.376252	
407152.225053	-0.379019	
407152.227051	-0.385162	
407152.229051	-0.389894	
407152.231051	-0.390734	
407152.233051	-0.396115	
407152.235056	-0.399111	
407152.239052	-0.401906	
407152.241051	-0.410318	
407152.243052	-0.411932	
407152.245051	-0.418606	
407152.247051	-0.418819	
407152.251049	-0.426367	
407152.253050	-0.427962	
407152.257050	-0.432912	
407152.261050	-0.439759	
407152.263053	-0.443707	
407152.265052	-0.448011	
407152.267051	-0.453727	
407152.269052	-0.454442	
407152.273049	-0.460030	
407152.275052	-0.472244	
407152.277053	-0.480471	
407152.281053	-0.484686	
407152.283054	-0.493389	
407152.285054	-0.497418	
407152.287055	-0.501265	
407152.289053	-0.508278	
407152.291053	-0.515577	
407152.293052	-0.523023	
407152.297057	-0.531168	
407152.299058	-0.537526	
407152.301058	-0.540404	
407152.303057	-0.542093	
407152.305058	-0.549392	
407152.307057	-0.553411	
407152.309057	-0.556380	
407152.311057	-0.566248	
407152.313058	-0.570860	
407152.315060	-0.573813	
407152.319057	-0.578940	
407152.321058	-0.580766	
407152.323057	-0.584117	
407152.325056	-0.586671	
407152.327057	-0.592856	
407152.329057	-0.593379	
407152.331058	-0.596938	
407152.335057	-0.601930	
407152.339055	-0.604530	
407152.341058	-0.607380	
407152.343060	-0.607455	
407152.345058	-0.611741	
407152.347058	-0.609446	
407152.349058	-0.608149	
407152.351058	-0.608420	
407152.355056	-0.606524	
407152.359055	-0.609259	
407152.361058	-0.604589	
407152.363058	-0.600100	
407152.365058	-0.597728	
